%time,field.x,field.y,field.z
1521800070395250082,0.000391790237369,7.54627373929e-08,0.0
1521800070395390033,0.000391842953114,7.54746814459e-08,0.0
1521800070398477077,0.000391895668849,7.54866261521e-08,0.0
1521800070414963960,0.000391948384574,7.54985714652e-08,0.0
1521800070415096044,0.000392001100288,7.55105173967e-08,0.0
1521800070415174961,0.000392053815993,7.55224640654e-08,0.0
1521800070415237903,0.000392135525314,7.55409823766e-08,0.0
1521800070433021068,0.000392159247372,7.55463589519e-08,0.0
1521800070437876939,0.000392240956662,7.55648793437e-08,0.0
1521800070438397884,0.000392293672321,7.55768285789e-08,0.0
1521800070438653945,0.00039234638797,7.55887783469e-08,0.0
1521800070441736936,0.000392370110009,7.55941559546e-08,0.0
1521800070443615913,0.000392451819237,7.56126796933e-08,0.0
1521800070582902908,0.000392504534856,7.56246309291e-08,0.0
1521800070589814901,0.000392557250464,7.5636582427e-08,0.0
1521800070617427110,0.000392609966063,7.5648534359e-08,0.0
1521800070617552995,0.000392662681652,7.56604867029e-08,0.0
1521800070680181980,0.000398550020131,7.6994838564e-08,0.0
1521800070681376934,0.00140931174013,3.05459620529e-07,0.0
1521800070720019102,0.00363855857312,8.05867928431e-07,0.0
1521800070762631893,0.00707702657437,1.57316978477e-06,0.0
1521800070763360023,0.0117200854567,2.60585483014e-06,0.0
1521800070775659084,0.0213681280493,4.74820421105e-06,0.0
1521800070793127059,0.0289513619379,6.43013426905e-06,0.0
1521800070797410011,0.0377318744398,8.37718231649e-06,0.0
1521800070804358005,0.0477110681494,1.05897369905e-05,0.0
1521800070807637929,0.0588896436399,1.30680363313e-05,0.0
1521800070807858943,0.0712679503998,1.58121899889e-05,0.0
1521800070812863111,0.0848461623216,1.88222995852e-05,0.0
1521800070841418981,0.0996243654557,2.20984452949e-05,0.0
1521800070841727972,0.115602601891,2.56406550899e-05,0.0
1521800070841875076,0.132780891695,2.94488780665e-05,0.0
1521800070846755027,0.151159243888,3.3523220565e-05,0.0
1521800070856653928,0.170591076147,3.78311635516e-05,0.0
1521800070871936082,0.201158997927,4.46402140917e-05,0.0
1521800070912031888,0.210170951,4.66705123594e-05,0.0
1521800070912367105,0.230101915908,5.11751529097e-05,0.0
1521800070933248996,0.250068131945,5.56983463437e-05,0.0
1521800070950836896,0.270051966428,6.02298797302e-05,0.0
1521800070981036901,0.301184795888,6.72930544476e-05,0.0
1521800070989479064,0.310041630004,6.93029503378e-05,0.0
1521800071054569959,0.330040845419,7.38415932018e-05,0.0
1521800071071175098,0.361184268828,8.09099619649e-05,0.0
1521800071092962026,0.381183896809,8.54496027261e-05,0.0
1521800071094379901,0.401183502091,8.99895067126e-05,0.0
1521800071101586103,0.421183098796,9.45296518616e-05,0.0
1521800071123495101,0.450046838928,0.000101082525361,0.0
1521800071143099069,0.470048124372,0.000105623630467,0.0
1521800071194989919,0.481181891996,0.000108151537242,0.0
1521800071234266996,0.510050669139,0.000114706496603,0.0
1521800071234414100,0.541180723651,0.000121775288087,0.0
1521800071274054050,0.561180344686,0.00012631685522,0.0
1521800071274185895,0.581179971095,0.000130858593155,0.0
1521800071314933061,0.601179602895,0.000135400604419,0.0
1521800071315323114,0.62117924009,0.000139942833926,0.0
1521800071356748104,0.641178882673,0.000144485311016,0.0
1521800071357196092,0.661178530631,0.000149028080694,0.0
1521800071393922090,0.681178183944,0.000153571125767,0.0
1521800071394010066,0.701177842588,0.000158114333218,0.0
1521800071434901952,0.721177506529,0.000162657578474,0.0
1521800071441354036,0.741177175728,0.00016720089717,0.0
1521800071478004932,0.770065867302,0.000173763706956,0.0
1521800071478210926,0.79006694288,0.000178307465923,0.0
1521800071517971992,0.810068005987,0.000182851412628,0.0
1521800071518084049,0.83006905677,0.000187395596292,0.0
1521800071558290004,0.841175598693,0.000189918969867,0.0
1521800071558479070,0.870071121894,0.000196484135179,0.0
1521800071602094888,0.890072136475,0.000201028553293,0.0
1521800071602226972,0.910073139211,0.000205573067297,0.0
1521800071641834974,0.9300741302,0.000210117719714,0.0
1521800071655777931,0.950075109527,0.000214662377607,0.0
1521800071693923950,0.970076077273,0.000219207155365,0.0
1521800071694034099,0.990077033511,0.000223752145739,0.0
1521800071735759973,1.02117305631,0.000230818481164,0.0
1521800071736150026,1.04117279453,0.000235363398894,0.0
1521800071775305986,1.06117253641,0.000239908459715,0.0
1521800071775876045,1.08117228183,0.000244453690229,0.0
1521800071813882112,1.10117203065,0.000248999199768,0.0
1521800071814003944,1.12117178275,0.000253544963553,0.0
1521800071854103088,1.14117153799,0.000258090887205,0.0
1521800071864377975,1.16117129626,0.00026263694944,0.0
1521800071903033018,1.18117105745,0.000267183171158,0.0
1521800071942236900,1.20117082144,0.000271729622411,0.0
1521800071942359924,1.2300876328,0.000278303660896,0.0
1521800071942409992,1.25008844497,0.000282850960341,0.0
1521800071942447900,1.27008924654,0.000287398565334,0.0
1521800072009074926,1.28116990362,0.000289918098992,0.0
1521800072010066032,1.3100908183,0.000296494641705,0.0
1521800072051462888,1.3300915887,0.000301043080676,0.0
1521800072051922082,1.34116924073,0.000303562373773,0.0
1521800072091008901,1.37009309915,0.000310140837391,0.0
1521800072091312885,1.39009383945,0.000314690233396,0.0
1521800072130084037,1.41009457001,0.000319239897883,0.0
1521800072130197048,1.43009529096,0.000323789826613,0.0
1521800072170147895,1.46116797604,0.00033085894187,0.0
1521800072170265913,1.48116777311,0.000335409290034,0.0
1521800072170310974,1.50116757248,0.000339959886983,0.0
1521800072230181932,1.52116737417,0.000344510685568,0.0
1521800072230556964,1.54116717822,0.000349061591202,0.0
1521800072270796060,1.56116698467,0.000353612623542,0.0
1521800072271097898,1.58116679355,0.00035816385535,0.0
1521800072309788942,1.6101013747,0.000364748640009,0.0
1521800072309865951,1.63010200887,0.000369300390883,0.0
1521800072349884986,1.65010263531,0.000373852284664,0.0
1521800072349991083,1.6701032542,0.00037840435606,0.0
1521800072390703916,1.69010386569,0.000382956535402,0.0
1521800072390856027,1.71010446993,0.000387508874137,0.0
1521800072430022954,1.73010506708,0.000392061333143,0.0
1521800072430138111,1.75010565725,0.000396613884152,0.0
1521800072470228910,1.77010624059,0.00040116654416,0.0
1521800072506136894,1.80116486252,0.000408236525333,0.0
1521800072546169042,1.82116470309,0.000412789341776,0.0
1521800072546279907,1.84116454633,0.000417342356188,0.0
1521800072546331882,1.86116439222,0.000421895510566,0.0
1521800072586487054,1.88116424072,0.000426448792537,0.0
1521800072586591958,1.90116409176,0.000431002199224,0.0
1521800072595655918,1.92116394531,0.000435555720982,0.0
1521800072626538991,1.94116380129,0.000440109330039,0.0
1521800072665955066,1.96116365962,0.000444662945879,0.0
1521800072666049957,1.98116352024,0.000449216580389,0.0
1521800072705843925,2.01011274088,0.000455807800222,0.0
1521800072705954074,2.02116324795,0.00045832381805,0.0
1521800072745964050,2.04116311487,0.000462877608075,0.0
1521800072746067047,2.06116298369,0.000467431640939,0.0
1521800072788245916,2.08116285433,0.00047198595465,0.0
1521800072788494110,2.11011518913,0.000478579321749,0.0
1521800072825978040,2.13011566067,0.000483134226079,0.0
1521800072826046943,2.15011612616,0.000487689169442,0.0
1521800072866981029,2.1701165856,0.000492244269853,0.0
1521800072876437902,2.190117039,0.000496799558367,0.0
1521800072916567087,2.21011748636,0.000501355081306,0.0
1521800072954519033,2.23011792769,0.000505910884605,0.0
1521800072954663038,2.25011836301,0.000510467014854,0.0
1521800072954751014,2.27011879233,0.000515023385197,0.0
1521800072994152069,2.29011921569,0.000519579999069,0.0
1521800072994337081,2.31011963313,0.000524137030933,0.0
1521800073009519100,2.33012004468,0.000528694441079,0.0
1521800073033765077,2.3501204504,0.000533252069151,0.0
1521800073071320056,2.38116106844,0.000540325949199,0.0
1521800073071947097,2.3901212446,0.000542367979512,0.0
1521800073110054016,2.41012163324,0.00054692616626,0.0
1521800073149048089,2.4411607354,0.000554000391367,0.0
1521800073187282085,2.46116062591,0.000558558854282,0.0
1521800073187732934,2.48116051722,0.000563117518549,0.0
1521800073187832117,2.4901231334,0.000565160492512,0.0
1521800073226083993,2.52116030241,0.000572235628067,0.0
1521800073226372957,2.54116019637,0.000576795026823,0.0
1521800073237904071,2.56116009132,0.000581354731947,0.0
1521800073284908056,2.59012489458,0.000587958731422,0.0
1521800073323817014,2.61012523285,0.00059251901019,0.0
1521800073324183940,2.62115978264,0.000595035049778,0.0
1521800073362123966,2.66115958286,0.000604155967818,0.0
1521800073373358011,2.68115948495,0.000608716633086,0.0
1521800073409921884,2.70115938845,0.000613277424944,0.0
1521800073410053968,2.72115929339,0.000617838400725,0.0
1521800073450079917,2.74115919982,0.000622399544506,0.0
1521800073450191020,2.7611591078,0.000626960934358,0.0
1521800073491204977,2.78115901735,0.000631522561527,0.0
1521800073491689920,2.80115892849,0.000636084357343,0.0
1521800073531054973,2.82115884126,0.000640646231502,0.0
1521800073531506061,2.84115875565,0.00064520823251,0.0
1521800073570987939,2.87012927758,0.00065181684521,0.0
1521800073571557998,2.89012956503,0.000656379334465,0.0
1521800073615356922,2.91012984943,0.000660941883712,0.0
1521800073615745067,2.93013013081,0.000665504491023,0.0
1521800073684397935,2.96115827564,0.000672583079883,0.0
1521800073685663938,2.98115820096,0.000677145958027,0.0
1521800073721944093,3.00115812767,0.000681708866811,0.0
1521800073722029924,3.01013122632,0.000683756065906,0.0
1521800073762484073,3.04115798499,0.00069083484047,0.0
1521800073762868881,3.07013201629,0.000697445369338,0.0
1521800073803273916,3.08115784699,0.000699961042946,0.0
1521800073803879022,3.11013252753,0.00070657221589,0.0
1521800073841979980,3.13013277842,0.000711135811143,0.0
1521800073855597019,3.14115764732,0.000713651485394,0.0
1521800073894021987,3.20115745432,0.000727343259974,0.0
1521800073934438943,3.22115739107,0.000731907538718,0.0
1521800073934581995,3.24115732822,0.000736472043311,0.0
1521800073975151062,3.26115726572,0.000741036827388,0.0
1521800073975621938,3.28115720348,0.000745601877671,0.0
1521800074014067888,3.30115714146,0.000750167171897,0.0
1521800074037370920,3.32115707961,0.00075473274934,0.0
1521800074073852062,3.35013532039,0.00076134834722,0.0
1521800074073960065,3.37013553119,0.00076591463034,0.0
1521800074074028968,3.38115689463,0.000768431005283,0.0
1521800074115595102,3.41013594273,0.000775047755954,0.0
1521800074115950107,3.43013614354,0.000779614628098,0.0
1521800074123747110,3.45013634112,0.000784181723866,0.0
1521800074145086050,3.47013653552,0.00078874905891,0.0
1521800074182065963,3.4901367268,0.000793316568608,0.0
1521800074222001075,3.51013691505,0.000797884305603,0.0
1521800074222138881,3.53013710034,0.000802452269088,0.0
1521800074262149095,3.55013728277,0.00080702042776,0.0
1521800074262268066,3.57013746242,0.000811588703657,0.0
1521800074302037000,3.59013763939,0.000816157191338,0.0
1521800074302136898,3.61013781379,0.000820725898608,0.0
1521800074341857910,3.63013798572,0.000825294770874,0.0
1521800074341963052,3.65013815528,0.000829863853414,0.0
1521800074383207082,3.67013832259,0.000834433101149,0.0
1521800074383769035,3.69013848773,0.000839002534946,0.0
1521800074422081947,3.71013865083,0.000843572076753,0.0
1521800074422230958,3.73013881198,0.000848141715961,0.0
1521800074461957931,3.75013897127,0.000852711501784,0.0
1521800074462060928,3.77013912879,0.000857281551463,0.0
1521800074502229928,3.79013928464,0.000861851728405,0.0
1521800074502366065,3.82115560868,0.000868939418602,0.0
1521800074542032003,3.84115555832,0.000873509888197,0.0
1521800074542140960,3.86115550906,0.000878080518684,0.0
1521800074583746910,3.88115546093,0.000882651249907,0.0
1521800074584047079,3.90115541393,0.000887222043741,0.0
1521800074622014045,3.92115536806,0.000891792922763,0.0
1521800074622076034,3.94115532331,0.000896363939066,0.0
1521800074662173032,3.96115527966,0.000900935098648,0.0
1521800074680938959,3.98115523707,0.000905506368879,0.0
1521800074719002962,4.00115519551,0.000910077707515,0.0
1521800074757915973,4.02115515494,0.000914649062028,0.0
1521800074758007049,4.07014131785,0.000925845890189,0.0
1521800074797986030,4.09014145293,0.000930417497968,0.0
1521800074798135042,4.10115500132,0.000932935063915,0.0
1521800074840001106,4.1301417186,0.000939561203004,0.0
1521800074840606927,4.15014184909,0.000944133085778,0.0
1521800074878424882,4.17014197794,0.000948705111104,0.0
1521800074878690958,4.1901421051,0.000953277315749,0.0
1521800074917942047,4.22115478875,0.000960367305384,0.0
1521800074961297988,4.23014235412,0.000962422111527,0.0
1521800074999300003,4.26115472008,0.000969512840551,0.0
1521800074999763965,4.27014259572,0.000971567937707,0.0
1521800074999946117,4.30115465149,0.000978659300556,0.0
1521800075000066041,4.32115461706,0.000983232933135,0.0
1521800075038027048,4.33014294343,0.00098528844539,0.0
1521800075057681083,4.36115454768,0.000992380713382,0.0
1521800075094016075,4.39014327282,0.000999010966428,0.0
1521800075094126939,4.41014337848,0.00100358561093,0.0
1521800075134680986,4.43014348209,0.00100816062508,0.0
1521800075135154962,4.45014358365,0.00101273588131,0.0
1521800075175178050,4.4701436832,0.00101731129085,0.0
1521800075175642013,4.49014378078,0.00102188694428,0.0
1521800075213826894,4.51014387642,0.00102646292051,0.0
1521800075213902950,4.53014397018,0.0010310392526,0.0
1521800075255213975,4.55014406213,0.00103561573089,0.0
1521800075258708000,4.56115418511,0.00103813515641,0.0
1521800075300251007,4.60115411023,0.00104728888148,0.0
1521800075337842941,4.62115407279,0.00105186615786,0.0
1521800075337933063,4.65014449714,0.001058501447,0.0
1521800075379359006,4.67014457978,0.0010630792586,0.0
1521800075412404060,4.69014466118,0.00106765729734,0.0
1521800075451776027,4.72115388828,0.00107475592757,0.0
1521800075452857971,4.74115385243,0.00107933456781,0.0
1521800075453067064,4.7611538171,0.00108391328593,0.0
1521800075490075111,4.78115378235,0.00108849214773,0.0
1521800075490298032,4.80115374825,0.00109307116587,0.0
1521800075518472909,4.82115371485,0.00109765024145,0.0
1521800075520100116,4.8411536822,0.00110222939112,0.0
1521800075557756900,4.87014535224,0.00110886750789,0.0
1521800075598848104,4.88115361934,0.00111138808506,0.0
1521800075639384031,4.91014549888,0.00111802655277,0.0
1521800075639554977,4.93014557156,0.00112260623358,0.0
1521800075639627933,4.94115353153,0.0011251268783,0.0
1521800075685519933,4.97014571575,0.00113176573981,0.0
1521800075685991048,4.99014578728,0.0011363457278,0.0
1521800075728486061,5.01014585842,0.00114092576619,0.0
1521800075766973972,5.04115340262,0.00114802674539,0.0
1521800075805984973,5.06115337925,0.00115260704536,0.0
1521800075806085109,5.0901461387,0.00115924699927,0.0
1521800075806122064,5.11014620752,0.00116382754995,0.0
1521800075856822967,5.13014627574,0.00116840814988,0.0
1521800075858230113,5.1501463433,0.00117298891759,0.0
1521800075898149013,5.17014641015,0.00117756981343,0.0
1521800075898567914,5.19014647623,0.00118215088106,0.0
1521800075898783922,5.22115321193,0.00118925328005,0.0
1521800075937884092,5.24115319236,0.00119383468491,0.0
1521800075938009977,5.26115317283,0.00119841631959,0.0
1521800075941291093,5.28115315327,0.00120299819119,0.0
1521800075997546911,5.29014679264,0.00120505866483,0.0
1521800076036089897,5.32115311373,0.00121216266172,0.0
1521800076036879062,5.33014691154,0.00121422336236,0.0
1521800076073962926,5.36115307322,0.00122132784967,0.0
1521800076074084997,5.38115305247,0.00122591064869,0.0
1521800076113931894,5.40115303134,0.00123049367946,0.0
1521800076114028930,5.42115300978,0.00123507695829,0.0
1521800076155807971,5.44115298778,0.00123966051174,0.0
1521800076156604051,5.45014723711,0.00124172190297,0.0
1521800076193909883,5.49014733473,0.00125089007817,0.0
1521800076194022893,5.51014738151,0.00125547465729,0.0
1521800076234617948,5.53014742698,0.00126005951648,0.0
1521800076235030889,5.55014747117,0.0012646446885,0.0
1521800076274010896,5.57014751412,0.00126923011346,0.0
1521800076274167060,5.5901475559,0.0012738158691,0.0
1521800076314838886,5.61014759657,0.00127840182282,0.0
1521800076315244913,5.63014763618,0.00128298804866,0.0
1521800076353981971,5.65014767481,0.00128757456321,0.0
1521800076370662927,5.68115269287,0.0012946853497,0.0
1521800076409970998,5.70115266696,0.00129927267069,0.0
1521800076410104036,5.72115264114,0.00130386024688,0.0
1521800076450023889,5.7411526155,0.00130844802518,0.0
1521800076450118064,5.7611525901,0.00131303602056,0.0
1521800076489921092,5.78115256501,0.0013176242035,0.0
1521800076490016937,5.80115254032,0.00132221250266,0.0
1521800076529969930,5.82115251608,0.00132680093245,0.0
1521800076530080080,5.84115249236,0.00133138948395,0.0
1521800076571989059,5.86115246922,0.00133597813398,0.0
1521800076572063922,5.88115244671,0.00134056686336,0.0
1521800076609880924,5.91014812472,0.00134721966812,0.0
1521800076609996080,5.93014815789,0.00135180870089,0.0
1521800076650594949,5.95014819113,0.00135639790266,0.0
1521800076656686067,5.97014822445,0.00136098719056,0.0
1521800076693924903,5.99014825787,0.00136557669976,0.0
1521800076734576940,6.0101482914,0.00137016631753,0.0
1521800076734946966,6.03014832502,0.00137475608141,0.0
1521800076735049962,6.05014835874,0.00137934596618,0.0
1521800076773827075,6.07014839252,0.00138393591872,0.0
1521800076773921012,6.09014842633,0.0013885258961,0.0
1521800076790951967,6.11014846014,0.00139311600302,0.0
1521800076810184001,6.13014849389,0.00139770625458,0.0
1521800076855081081,6.14115221977,0.00140023180146,0.0
1521800076893847942,6.17014856102,0.00140688718351,0.0
1521800076893945932,6.19014859427,0.0014114777517,0.0
1521800076894017934,6.21014862723,0.00141606845374,0.0
1521800076938143014,6.23014865982,0.00142065927973,0.0
1521800076938270092,6.25014869199,0.00142525029341,0.0
1521800076953363895,6.28115213431,0.00143236751211,0.0
1521800076992887973,6.31014878516,0.00143902437132,0.0
1521800077030098915,6.33014881489,0.00144361609121,0.0
1521800077030239105,6.35014884385,0.00144820798354,0.0
1521800077070277929,6.37014887198,0.00145280010374,0.0
1521800077070394039,6.39014889923,0.00145739246855,0.0
1521800077109968900,6.41014892556,0.00146198493033,0.0
1521800077149990081,6.43014895093,0.00146657760468,0.0
1521800077186469078,6.45014897531,0.00147117056987,0.0
1521800077186990976,6.47014899869,0.00147576379984,0.0
1521800077187406063,6.49014902105,0.00148035730584,0.0
1521800077226316928,6.51014904239,0.00148495110008,0.0
1521800077226514101,6.53014906272,0.00148954520386,0.0
1521800077226622104,6.55014908205,0.00149413960676,0.0
1521800077266345977,6.58116028159,0.00150126382997,0.0
1521800077270478010,6.59014942489,0.00150332906116,0.0
1521800077306005954,6.61014970047,0.00150792415473,0.0
1521800077346437931,6.64115258746,0.00151504746669,0.0
1521800077346808910,6.66115267532,0.00151964305312,0.0
1521800077386668920,6.68115270289,0.00152423877421,0.0
1521800077386815071,6.69015009195,0.00152630627319,0.0
1521800077426012039,6.72115268424,0.00153343060991,0.0
1521800077426153898,6.73015011722,0.00153549832748,0.0
1521800077467405080,6.77015012597,0.00154469132293,0.0
1521800077471441030,6.79015012855,0.00154928811004,0.0
1521800077510165929,6.81015013077,0.00155388513475,0.0
1521800077550652027,6.83015013292,0.00155848237124,0.0
1521800077550964117,6.86115249236,0.00156560890773,0.0
1521800077551103115,6.87015013762,0.00156767728964,0.0
1521800077590497970,6.9011524389,0.00157480448942,0.0
1521800077595391035,6.92115241329,0.00157940260204,0.0
1521800077657253980,6.9411523885,0.00158400080797,0.0
1521800077694091081,6.96115236457,0.00158859915832,0.0
1521800077694207906,6.9811523415,0.0015931976719,0.0
1521800077694276094,7.00115231933,0.00159779632057,0.0
1521800077694331884,7.02115229805,0.00160239506088,0.0
1521800077751144886,7.04115227766,0.00160699381761,0.0
