%time,field.x,field.y,field.z
1521813188806613922,5.99998306517,5.59956551069,0.132273097032
1521813188806781053,5.99998306517,5.59956544474,0.132273097033
1521813188806879043,5.99998306517,5.59956537879,0.132273097034
1521813188806956052,5.99998306517,5.59956531283,0.132273097035
1521813188807018041,5.99998306517,5.59956524688,0.132273097036
1521813188807077884,5.99998306516,5.59956518093,0.132273097037
1521813188807137012,5.99998306516,5.59956511497,0.132273097038
1521813188807195901,5.99998306516,5.59956504902,0.132273097039
1521813188807259082,5.99998306516,5.59956498307,0.13227309704
1521813188812367916,5.99998306516,5.59956491711,0.132273097041
1521813188812707901,5.99998306516,5.59956485116,0.132273097042
1521813188812916994,5.99998306516,5.59956478521,0.132273097043
1521813188819351911,5.99998306516,5.59956471926,0.132273097044
1521813188822160005,5.99998306516,5.5995646533,0.132273097045
1521813188822285890,5.99998306516,5.59956458735,0.132273097046
1521813188822361946,5.99998306516,5.5995645214,0.132273097047
1521813188822423934,5.99998306516,5.59956445544,0.132273097048
1521813188822489023,5.99998306515,5.59956438949,0.132273097049
1521813188831414937,5.99998306515,5.59956432354,0.13227309705
1521813188844118118,5.99998306515,5.59956425758,0.132273097051
1521813188959091901,5.99998306515,5.59956419163,0.132273097052
1521813188987891912,5.99998306515,5.59956412568,0.132273097053
1521813189008444070,5.99998306515,5.59956405973,0.132273097054
1521813189051335096,5.9999829884,5.59945952142,0.132273004224
1521813189064109086,5.99998285804,5.59789075965,0.132273039091
1521813189096795082,5.99998250801,5.59444681556,0.132273040952
1521813189142102003,5.99998195842,5.5891278591,0.132273041576
1521813189142913103,5.99998121192,5.58193389738,0.132273041808
1521813189147948026,5.99998026975,5.57286493295,0.132273041934
1521813189174245119,5.9999791325,5.56192096668,0.132273042059
1521813189176507949,5.99997780053,5.54910199884,0.132273042231
1521813189188589096,5.99997627412,5.53440802946,0.13227304248
1521813189191374063,5.99997455359,5.51783905854,0.13227304283
1521813189217885971,5.99997263926,5.49939508607,0.132273043307
1521813189218024969,5.99997053151,5.47907611207,0.13227304393
1521813189218101978,5.99996823076,5.4568821366,0.132273044718
1521813189240915060,5.99996573746,5.43281315981,0.132273045683
1521813189256218910,5.99996321422,5.40781141249,0.132273100556
1521813189312433958,5.99996070071,5.38281131392,0.132273097831
1521813189349997997,5.99995821325,5.35781123529,0.132273096838
1521813189350161075,5.99995573623,5.33281116471,0.132273096434
1521813189389947891,5.9999532635,5.30781109855,0.132273096224
1521813189401232957,5.99995079263,5.28281103547,0.132273096081
1521813189437894105,5.99994832251,5.25781097493,0.132273095965
1521813189504539966,5.99994585246,5.23281091664,0.132273095863
1521813189542144060,5.99994338196,5.20781086038,0.132273095773
1521813189542257070,5.99994091052,5.1828108059,0.132273095697
1521813189542320013,5.99993843774,5.15781075292,0.132273095635
1521813189542382001,5.99993596322,5.13281070114,0.132273095588
1521813189583275079,5.9999334866,5.10781065023,0.132273095557
1521813189625844955,5.99993100759,5.08281059983,0.132273095544
1521813189662358999,5.99992852594,5.05781054959,0.132273095548
1521813189662533044,5.99992604146,5.03281049914,0.13227309557
1521813189662638902,5.99992355404,5.00781044811,0.132273095609
1521813189702861070,5.99992106361,4.98281039616,0.132273095664
1521813189705024957,5.9999185702,4.95781034297,0.132273095734
1521813189741868972,5.99991607389,4.93281028823,0.132273095817
1521813189782936096,5.99991357483,4.90781023168,0.132273095911
1521813189783305883,5.99991107323,4.88281017311,0.132273096015
1521813189830018043,5.99990856936,4.85781011232,0.132273096126
1521813189836169004,5.99990606355,4.83281004921,0.132273096241
1521813189875107049,5.99990355615,4.8078099837,0.132273096357
1521813189915318965,5.99990104759,4.78280991577,0.132273096473
1521813189915923118,5.99989853827,4.75780984546,0.132273096585
1521813189955280065,5.99989602866,4.73280977287,0.132273096692
1521813189955631017,5.99989351921,4.70780969814,0.132273096789
1521813190002171993,5.99989101037,4.68280962147,0.132273096877
1521813190042042970,5.99988850256,4.65780954309,0.132273096951
1521813190083126068,5.99988599622,4.63280946329,0.132273097012
1521813190083548069,5.99988349171,4.60780938236,0.132273097057
1521813190083684921,5.99988098937,4.58280930066,0.132273097085
1521813190121922016,5.99987848949,4.55780921854,0.132273097097
1521813190130518913,5.99987599231,4.53280913635,0.132273097091
1521813190171077966,5.99987349798,4.50780905447,0.132273097068
1521813190209944963,5.99987100663,4.48280897325,0.132273097028
1521813190210063934,5.99986851827,4.45780889303,0.132273096972
1521813190255815982,5.99986603288,4.43280881415,0.132273096902
1521813190260346889,5.99986355036,4.40780873687,0.13227309682
1521813190321963071,5.99986107055,4.38280866147,0.132273096726
1521813190362588882,5.99985859321,4.35780858814,0.132273096624
1521813190362750053,5.99985611806,4.33280851706,0.132273096515
1521813190406306028,5.99985364476,4.30780844833,0.132273096402
1521813190406526088,5.99985117294,4.28280838201,0.132273096288
1521813190445873022,5.99984870219,4.2578083181,0.132273096175
1521813190445982933,5.99984623207,4.23280825656,0.132273096066
1521813190486994028,5.99984376214,4.20780819726,0.132273095964
1521813190487387895,5.99984129193,4.18280814006,0.13227309587
1521813190526709079,5.999838821,4.15780808475,0.132273095788
1521813190530734062,5.99983634892,4.13280803108,0.132273095719
1521813190570791006,5.99983387528,4.10780797876,0.132273095664
1521813190611695051,5.99983139972,4.08280792747,0.132273095625
1521813190652014970,5.9998289219,4.05780787688,0.132273095603
1521813190652561902,5.99982644156,4.03280782662,0.132273095599
1521813190690274953,5.99982395847,4.00780777633,0.132273095612
1521813190690371036,5.99982147249,3.98280772564,0.132273095642
1521813190729800939,5.99981898353,3.9578076742,0.132273095689
1521813190738509893,5.99981649157,3.93280762168,0.132273095752
1521813190777929067,5.99981399666,3.90780756775,0.132273095829
1521813190818624019,5.99981149891,3.88280751214,0.132273095918
1521813190818954944,5.99980899851,3.8578074546,0.132273096017
1521813190857770919,5.9998064957,3.83280739493,0.132273096124
1521813190860163927,5.99980399078,3.807807333,0.132273096237
1521813190904504060,5.9998014841,3.78280726869,0.132273096353
1521813190941741943,5.99979897603,3.75780720196,0.13227309647
1521813190941813945,5.99979646701,3.73280713283,0.132273096584
1521813190981937885,5.99979395747,3.70780706137,0.132273096693
1521813190982027053,5.99979144786,3.68280698768,0.132273096796
1521813191021733045,5.99978893863,3.65780691195,0.132273096888
1521813191040569067,5.99978643024,3.6328068344,0.132273096969
1521813191077935934,5.9997839231,3.60780675527,0.132273097037
1521813191118985891,5.99978141761,3.58280667487,0.132273097089
1521813191119349956,5.99977891413,3.55780659352,0.132273097126
1521813191158062934,5.99977641298,3.53280651158,0.132273097146
1521813191161945104,5.99977391442,3.50780642938,0.132273097148
1521813191202037096,5.99977141864,3.48280634732,0.132273097134
1521813191242902040,5.99976892578,3.45780626574,0.132273097102
1521813191281996011,5.99976643592,3.43280618499,0.132273097054
1521813191282126903,5.99976394904,3.40780610542,0.132273096991
1521813191322020053,5.9997614651,3.38280602733,0.132273096914
1521813191322601079,5.99975898395,3.35780595098,0.132273096826
1521813191361891031,5.99975650539,3.33280587662,0.132273096727
1521813191405122041,5.99975402917,3.30780580442,0.132273096621
1521813191405392885,5.99975155498,3.28280573453,0.13227309651
1521813191442074060,5.99974908245,3.25780566702,0.132273096396
1521813191442193984,5.9997466112,3.23280560194,0.132273096282
1521813191481955051,5.9997441408,3.20780553924,0.132273096171
1521813191482064962,5.99974167081,3.18280547886,0.132273096065
1521813191522106885,5.99973920076,3.15780542066,0.132273095967
1521813191563317060,5.99973673022,3.13280536446,0.132273095879
1521813191602161884,5.99973425873,3.10780531002,0.132273095802
1521813191641967058,5.99973178588,3.08280525708,0.13227309574
1521813191642117977,5.99972931129,3.05780520534,0.132273095693
1521813191642165899,5.9997268346,3.03280515446,0.132273095663
1521813191686685085,5.99972435551,3.00780510409,0.13227309565
1521813191687623023,5.99972187377,2.98280505387,0.132273095654
1521813191732956886,5.99971938921,2.95780500343,0.132273095676
1521813191771231889,5.9997169017,2.93280495242,0.132273095715
1521813191771573066,5.99971441119,2.90780490048,0.13227309577
1521813191810949087,5.9997119177,2.88280484729,0.132273095839
1521813191811256885,5.99970942131,2.85780479256,0.132273095923
1521813191850116014,5.99970692216,2.83280473601,0.132273096017
1521813191866925954,5.99970442048,2.80780467743,0.132273096121
1521813191906900882,5.99970191654,2.78280461664,0.132273096231
1521813191950090885,5.99969941065,2.75780455352,0.132273096346
1521813191950242996,5.99969690319,2.732804488,0.132273096462
1521813191990396022,5.99969439456,2.70780442007,0.132273096578
1521813191993531942,5.99969188519,2.68280434976,0.13227309669
1521813192030534982,5.99968937553,2.65780427716,0.132273096796
1521813192070025920,5.99968686602,2.63280420243,0.132273096893
1521813192111203908,5.99968435714,2.60780412576,0.13227309698
1521813192111721038,5.99968184929,2.58280404738,0.132273097055
1521813192149908065,5.99967934291,2.55780396758,0.132273097115
1521813192149990081,5.99967683837,2.53280388667,0.132273097159
1521813192192357063,5.99967433601,2.50780380499,0.132273097187
1521813192192950963,5.99967183611,2.48280372288,0.132273097198
1521813192230325937,5.9996693389,2.45780364072,0.132273097192
1521813192270945072,5.99966684456,2.43280355886,0.132273097169
1521813192271365880,5.99966435318,2.40780347767,0.132273097129
1521813192310007095,5.9996618648,2.38280339749,0.132273097073
1521813192310127019,5.99965937939,2.35780331864,0.132273097003
1521813192349838972,5.99965689685,2.33280324141,0.13227309692
1521813192356393098,5.99965441701,2.30780316605,0.132273096826
1521813192397953987,5.99965193964,2.28280309277,0.132273096723
1521813192471462965,5.99964946446,2.25780302173,0.132273096614
1521813192510965108,5.99964699113,2.23280295305,0.132273096501
1521813192511123895,5.99964451927,2.20780288678,0.132273096386
1521813192511179924,5.99964204847,2.18280282292,0.132273096274
1521813192511220932,5.9996395783,2.15780276143,0.132273096165
1521813192550308942,5.9996371083,2.13280270218,0.132273096062
1521813192564341068,5.99963463803,2.10780264502,0.132273095969
1521813192602529048,5.99963216703,2.08280258975,0.132273095886
1521813192642730951,5.99962969488,2.05780253612,0.132273095817
1521813192682360887,5.99962722116,2.03280248384,0.132273095762
1521813192682629108,5.99962474551,2.00780243258,0.132273095723
1521813192682713985,5.99962226761,1.98280238201,0.132273095701
1521813192722438097,5.99961978718,1.95780233177,0.132273095697
1521813192729484081,5.999617304,1.9328022815,0.13227309571
1521813192766834974,5.99961481793,1.90780223083,0.132273095741
1521813192806094884,5.99961232887,1.8828021794,0.132273095788
1521813192806236028,5.99960983682,1.85780212688,0.13227309585
1521813192845958948,5.99960734181,1.83280207295,0.132273095927
1521813192855737924,5.99960484397,1.80780201734,0.132273096016
1521813192894257068,5.99960234348,1.7828019598,0.132273096115
1521813192935026884,5.99959984058,1.75780190013,0.132273096222
1521813192935375928,5.99959733558,1.73280183819,0.132273096335
1521813192974041938,5.99959482882,1.70780177387,0.132273096451
1521813192983613014,5.99959232068,1.68280170714,0.132273096567
1521813193021891117,5.99958981159,1.657801638,0.132273096681
1521813193061945915,5.99958730198,1.63280156653,0.132273096791
1521813193102987051,5.99958479231,1.60780149284,0.132273096893
1521813193141863107,5.99958228302,1.58280141711,0.132273096985
1521813193141963958,5.99957977458,1.55780133955,0.132273097066
1521813193142033100,5.99957726739,1.53280126043,0.132273097133
1521813193183569908,5.99957476187,1.50780118004,0.132273097185
1521813193194053888,5.99957225835,1.4828010987,0.132273097221
1521813193234579086,5.99956975717,1.45780101677,0.132273097241
1521813193274152994,5.99956725857,1.4328009346,0.132273097243
1521813193274292945,5.99956476276,1.40780085255,0.132273097228
1521813193315056085,5.99956226987,1.382800771,0.132273097196
1521813193360255956,5.99955977998,1.35780069029,0.132273097148
1521813193398159027,5.99955729308,1.33280061075,0.132273097084
1521813193439198017,5.9995548091,1.3078005327,0.132273097007
1521813193439737081,5.99955232792,1.28280045639,0.132273096918
1521813193439897060,5.99954984932,1.25780038207,0.13227309682
1521813193478127956,5.99954737306,1.23280030992,0.132273096713
1521813193491132974,5.99954489883,1.20780024008,0.132273096602
1521813193530088901,5.99954242625,1.18280017262,0.132273096488
1521813193530234098,5.99953995495,1.15780010758,0.132273096374
1521813193569977045,5.99953748449,1.13280004494,0.132273096262
1521813193570070028,5.99953501443,1.1077999846,0.132273096156
1521813193610013008,5.99953254432,1.08279992645,0.132273096058
1521813193610126972,5.9995300737,1.05779987029,0.13227309597
1521813193649915933,5.99952760213,1.03279981589,0.132273095894
1521813193656039953,5.9995251292,1.00779976298,0.132273095831
1521813193694185018,5.99952265451,0.98279971127,0.132273095784
1521813193733952045,5.99952017772,0.957799660416,0.132273095754
1521813193775468111,5.99951769854,0.93279961007,0.132273095741
1521813193775978088,5.9995152167,0.907799559869,0.132273095745
1521813193813900947,5.99951273204,0.882799509448,0.132273095767
1521813193814002990,5.99951024443,0.857799458447,0.132273095806
1521813193855263948,5.99950775382,0.832799406516,0.132273095861
1521813193857208967,5.99950526022,0.807799353331,0.132273095931
1521813193893834114,5.99950276373,0.782799298594,0.132273096014
1521813193937922954,5.99950026448,0.757799242043,0.132273096108
1521813193979095935,5.9994977627,0.732799183457,0.132273096212
1521813193979382038,5.99949525867,0.707799122662,0.132273096322
1521813194019241094,5.99949275269,0.682799059536,0.132273096437
1521813194019444942,5.99949024514,0.657798994008,0.132273096553
1521813194057878971,5.99948773643,0.632798926064,0.132273096669
1521813194083715915,5.99948522698,0.607798855743,0.13227309678
1521813194122488975,5.99948271725,0.582798783141,0.132273096886
1521813194162106037,5.99948020768,0.557798708404,0.132273096983
1521813194162266016,5.99947769873,0.532798631728,0.13227309707
1521813194202982902,5.99947519083,0.507798553354,0.132273097144
1521813194203361988,5.9994726844,0.48279847356,0.132273097204
1521813194242440938,5.99947017981,0.457798392658,0.132273097248
1521813194263231039,5.9994676774,0.432798310984,0.132273097276
1521813194303021907,5.99946517746,0.407798228894,0.132273097286
1521813194303302049,5.99946268021,0.38279814675,0.13227309728
1521813194342032909,5.99946018583,0.357798064919,0.132273097256
1521813194342164039,5.99945769441,0.332797983759,0.132273097216
1521813194397923946,5.999455206,0.307797903612,0.132273097159
1521813194432419061,5.99945272055,0.282797824797,0.132273097089
1521813194470360994,5.99945023797,0.257797747605,0.132273097006
1521813194470472097,5.99944775808,0.232797672287,0.132273096911
1521813194470530986,5.99944528067,0.207797599053,0.132273096808
1521813194524411916,5.99944280544,0.182797528063,0.132273096699
1521813194524672031,5.99944033205,0.157797459428,0.132273096586
1521813194575391054,5.99943786013,0.132797393204,0.132273096471
1521813194614116907,5.99943538927,0.107797329393,0.132273096358
1521813194614465951,5.99943291903,0.0827972679395,0.132273096249
1521813194654015064,5.99943044896,0.0577972087363,0.132273096147
1521813194654159069,5.9994279786,0.0327971516236,0.132273096053
1521813194693907976,5.99942550752,0.0077970963939,0.132273095971
1521813194694041013,5.99942303527,-0.0172029572034,0.132273095901
1521813194734988927,5.99942056146,-0.0422030094563,0.132273095847
1521813194735331058,5.99941808571,-0.0672030606834,0.132273095808
1521813194802658081,5.99941560771,-0.0922031112269,0.132273095786
1521813194802912950,5.99941312717,-0.117203161445,0.132273095782
1521813194841967105,5.99941064388,-0.142203211702,0.132273095795
1521813194842133998,5.9994081577,-0.167203262363,0.132273095825
1521813194882699012,5.99940566853,-0.192203313783,0.132273095873
1521813194883069992,5.99940317636,-0.2172033663,0.132273095935
1521813194921849966,5.99940068124,-0.242203420227,0.132273096012
1521813194929286003,5.9993981833,-0.267203475842,0.132273096101
1521813194966135025,5.9993956827,-0.292203533389,0.1322730962
1521813195007025957,5.9993931797,-0.317203593065,0.132273096307
1521813195007576942,5.9993906746,-0.342203655018,0.13227309642
1521813195058927059,5.99938816773,-0.367203719345,0.132273096536
1521813195060005903,5.9993856595,-0.392203786088,0.132273096652
1521813195107883930,5.99938315032,-0.417203855234,0.132273096766
1521813195150264978,5.99938064063,-0.442203926715,0.132273096875
1521813195150609016,5.99937813089,-0.46720400041,0.132273096976
1521813195189896106,5.99937562153,-0.492204076146,0.132273097068
1521813195189985036,5.99937311302,-0.517204153705,0.132273097149
1521813195229974031,5.99937060577,-0.542204232825,0.132273097216
1521813195260682106,5.99936810019,-0.567204313212,0.132273097268
1521813195298000097,5.99936559662,-0.592204394539,0.132273097304
1521813195298134088,5.99936309538,-0.61720447646,0.132273097323
1521813195338270902,5.99936059674,-0.642204558614,0.132273097325
1521813195338813066,5.99935810088,-0.667204640636,0.132273097309
1521813195377880096,5.99935560795,-0.692204722164,0.132273097277
1521813195380043029,5.99935311801,-0.717204802844,0.132273097228
1521813195419267892,5.99935063106,-0.742204882347,0.132273097164
1521813195457942008,5.99934814704,-0.767204960366,0.132273097087
1521813195458060026,5.9993456658,-0.792205036631,0.132273096998
1521813195499171972,5.99934318716,-0.817205110909,0.132273096899
1521813195550725936,5.99934071084,-0.842205183017,0.132273096793
1521813195590194940,5.99933823654,-0.867205252818,0.132273096681
1521813195590347051,5.99933576391,-0.892205320228,0.132273096567
1521813195630072116,5.99933329253,-0.91720538522,0.132273096452
1521813195630198001,5.999330822,-0.942205447819,0.132273096341
1521813195669776916,5.99932835186,-0.967205508109,0.132273096235
1521813195669909000,5.99932588166,-0.992205566223,0.132273096137
1521813195709897041,5.99932341095,-1.01720562235,0.132273096048
1521813195730953931,5.99932093928,-1.04220567671,0.132273095972
1521813195770734071,5.99931846625,-1.06720572958,0.13227309591
1521813195810456037,5.99931599146,-1.09220578126,0.132273095863
1521813195810527086,5.99931351456,-1.11720583209,0.132273095833
1521813195850805997,5.99931103526,-1.14220588242,0.13227309582
1521813195856203079,5.99930855331,-1.1672059326,0.132273095824
1521813195894131898,5.99930606853,-1.19220598301,0.132273095846
1521813195894248962,5.9993035808,-1.217206034,0.132273095885
1521813195935132980,5.99930109007,-1.24220608593,0.13227309594
1521813195935621976,5.99929859636,-1.26720613911,0.13227309601
1521813195974280118,5.99929609974,-1.29220619385,0.132273096093
1521813195980148077,5.99929360038,-1.31720625041,0.132273096187
1521813196032222986,5.99929109849,-1.342206309,0.132273096291
1521813196070209980,5.99928859434,-1.36720636981,0.132273096401
1521813196070353984,5.99928608826,-1.39220643294,0.132273096516
1521813196109939098,5.99928358061,-1.41720649848,0.132273096632
1521813196110009908,5.9992810718,-1.44220656644,0.132273096747
1521813196151276111,5.99927856227,-1.46720663677,0.132273096859
1521813196160898923,5.99927605244,-1.49220670938,0.132273096964
1521813196199064016,5.99927354279,-1.51720678412,0.132273097061
1521813196238369941,5.99927103377,-1.5422068608,0.132273097147
